6.010692764410143774e-01
6.011119234325210670e-01
6.011567639499515447e-01
6.011950610295693220e-01
6.012173912922176289e-01
6.012138650412988117e-01
6.011744419358469038e-01
6.010893573654947364e-01
6.009496484374143854e-01
6.007477324455645640e-01
6.004779451770103638e-01
6.001369207959996732e-01
5.997237763015261791e-01
5.992402107076946205e-01
5.986905447205401742e-01
5.980814132079685930e-01
5.974208248723298365e-01
5.967167805728432750e-01
5.959760962737343792e-01
5.952040674427889755e-01
5.944049820906018855e-01
5.935827096908870004e-01
5.927406464134614694e-01
5.918812110197380072e-01
5.910057610362111635e-01
5.901155213397042409e-01
5.892131288948805334e-01
5.883036250125310840e-01
5.873940406858844110e-01
5.864918084814181309e-01
5.856030418416837691e-01
5.847317371236380179e-01
5.838802183591247363e-01
5.830501724624865822e-01
5.822433109313720490e-01
5.814612699786452232e-01
5.807051530785840576e-01
5.799754143030628750e-01
5.792722633741660410e-01
5.785959430734328723e-01
5.779461704806410083e-01
5.773209591331227575e-01
5.767159218734512205e-01
5.761250085584606051e-01
5.755424718195401024e-01
5.749647605088930025e-01
5.743912119008400818e-01
5.738236078675602592e-01
5.732654946460027379e-01
5.727220148771261510e-01
5.722003231707477600e-01
5.717100395628145204e-01
5.712630831355076655e-01
5.708727940214120000e-01
5.705529844886267909e-01
5.703175618374176636e-01
5.701805104005182034e-01
5.701553208103475878e-01
5.702532681976839601e-01
5.704809386702682783e-01
5.708381138750071582e-01
5.713169019368782298e-01
5.719020876406157861e-01
5.725720152354043524e-01
5.732995345397600140e-01
5.740531573027625178e-01
5.747987664158917820e-01
5.755019331398512072e-01
5.761304939645752743e-01
5.766567450756703295e-01
5.770586995765889515e-01
5.773203654325242962e-01
5.774314878734645440e-01
5.773872643398036963e-01
5.771881601013442165e-01
5.768394908351708317e-01
5.763504851983012323e-01
5.757330723955544904e-01
5.750009195888448055e-01
5.741689188171121838e-01
5.732527381864358507e-01
5.722677373521634081e-01
5.712268464096623699e-01
5.701377208434952326e-01
5.690000985435907932e-01
5.678045383689351855e-01
5.665334227114042775e-01
5.651642519758701688e-01
5.636745810675991564e-01
5.620480822751618977e-01
5.602816623110988825e-01
5.583934443631293210e-01
5.564307272368043122e-01
5.544765516747365286e-01
5.526537879637360984e-01
5.511263522265215098e-01
5.500975537631409562e-01
5.498052682883498576e-01
5.505127752870824231e-01
5.524934711535258725e-01
5.560080182133146920e-01
5.612737771722287050e-01
5.684281166073807956e-01
5.774889799300082505e-01
5.883176271953300951e-01
6.005899447028266724e-01
6.137843817588737316e-01
6.271955663653743240e-01
6.399812402313345139e-01
6.512442461712977249e-01
6.601391095030835210e-01
6.659775612416085622e-01
6.683008290909220328e-01
6.668987673698381080e-01
6.617806243991957160e-01
6.531204755003392481e-01
6.412008851423018907e-01
6.263674836953243563e-01
6.089970295503361886e-01
5.894768292610286231e-01
5.681919540824351689e-01
5.455163775855682573e-01
5.218044545080788854e-01
4.973801234971697016e-01
4.725232774521906376e-01
4.474557409439844924e-01
4.223317798273115709e-01
3.972383585149752983e-01
3.722077724733323101e-01
3.472408546104479021e-01
3.223350932798242918e-01
2.975105848525119723e-01
2.728278895656070513e-01
2.483946334075545770e-01
2.243610340080385845e-01
2.009074448147867842e-01
1.782285787434225166e-01
1.565187422684967133e-01
1.359608107117291076e-01
1.167201614470358417e-01
9.894388393747560739e-02
8.276493928238737308e-02
6.831026238763582281e-02
5.571115773145635108e-02
4.511408027649627117e-02
3.669008331606371520e-02
3.064118908215474057e-02
2.720146751909535698e-02
2.663075774087797498e-02
2.920049032168758885e-02
3.517310918910304673e-02
4.477790007523463345e-02
5.818630144398706516e-02
7.548939130753229421e-02
9.667973186180744971e-02
1.216393418782394376e-01
1.501349765675699666e-01
1.818210311798968415e-01
2.162496695304496064e-01
2.528874292965061499e-01
2.911373643288794333e-01
3.303654664607775238e-01
3.699295116622554613e-01
4.092077508912446704e-01
4.476243783935325848e-01
4.846689075718681461e-01
5.199079132029105210e-01
5.529898296894377729e-01
5.836454046988877042e-01
6.116867277156148308e-01
6.370064062478728584e-01
6.595767147603930347e-01
6.794475877223651317e-01
6.967422210806730742e-01
7.116493804682149094e-01
7.244120666204298953e-01
7.353128449419195078e-01
7.446568849416581592e-01
7.527544289940841793e-01
7.599046574435925905e-01
7.663825896867428877e-01
7.724299358780488678e-01
7.782499105877309642e-01
7.840053302795704226e-01
7.898192666708749865e-01
7.957778531810060230e-01
8.019349464978411390e-01
8.083181199487248225e-01
8.149350451140964235e-01
8.217790422576585208e-01
8.288329930770057530e-01
8.360718047356807681e-01
8.434643204850587050e-01
8.509753215802471349e-01
8.585673630124286415e-01
8.662016956984264215e-01
8.738380165872776661e-01
8.814336535550062468e-01
8.889431044957212258e-01
8.963183223788862009e-01
9.035092816549303851e-01
9.104640156147729702e-01
9.171278762260199890e-01
9.234427644395779566e-01
9.293475373941739726e-01
9.347801174389205325e-01
9.396805173724782634e-01
9.439933245866996003e-01
9.476687385166846500e-01
9.506623478766900170e-01
9.529345001053644015e-01
9.544500033935943151e-01
9.551782592958977247e-01
9.550934125016221632e-01
9.541742993246147275e-01
9.524045258482434217e-01
9.497731161679185963e-01
9.462757457880688339e-01
9.419160196315277123e-01
9.367060449652471199e-01
9.306660359853264897e-01
9.238235054356573883e-01
9.162129299209151867e-01
9.078762707546228494e-01
8.988638126681620655e-01
8.892343263595734459e-01
8.790540034406142400e-01
8.683944339087095177e-01
8.573304197583668795e-01
8.459383509958409153e-01
8.342952459847152724e-01
8.224779510048283448e-01
8.105619768686245230e-01
7.986199100151558650e-01
7.867198860926540860e-01
7.749247974998889621e-01
7.632923345737965271e-01
7.518751284200027030e-01
7.407202513346202721e-01
7.298682615917904126e-01
7.193527347396764249e-01
7.092009415549189733e-01
6.994354209601103545e-01
6.900756041133251362e-01
6.811388243077645122e-01
6.726407062034298612e-01
6.645953503670072315e-01
6.570154988367027382e-01
6.499123392326047188e-01
6.432944620138241199e-01
6.371659829930542696e-01
6.315245938012779003e-01
6.263606614721746180e-01
6.216580036013148458e-01
6.173958115932758339e-01
6.135504165610028426e-01
6.100959978721416377e-01
6.070044475836411380e-01
6.042453800187197466e-01
6.017871268614929381e-01
5.995986105576893710e-01
5.976511824742365420e-01
5.959197024877127546e-01
5.943828674694136005e-01
5.930231278374376025e-01
5.918263813837332243e-01
5.907813764625864383e-01
5.898786527468449226e-01
5.891091286516050296e-01
5.884629415579740730e-01
5.879292054464480000e-01
5.874967713026046923e-01
5.871554149386044585e-01
5.868966622020983515e-01
5.867138213497764543e-01
5.866014705482600622e-01
5.865550756030175616e-01
5.865712053371450185e-01
5.866481421055347312e-01
5.867861674863297239e-01
5.869869532072879981e-01
5.872521494044105062e-01
5.875818813860729239e-01
5.879739865229949292e-01
5.884242306131255429e-01
5.889268792994766244e-01
5.894747905402297761e-01
5.900588509016710947e-01
5.906673721394417598e-01
5.912862942472720817e-01
5.919005051533317019e-01
5.924956829469909536e-01
5.930596768226226168e-01
5.935829523294438026e-01
5.940583934989924764e-01
5.944810386743362152e-01
5.948480021846849208e-01
5.951582736975258303e-01
5.954119924848491063e-01
5.956094095046333692e-01
5.957502501883911172e-01
5.958338484877758745e-01
5.958596807301337339e-01
5.958276421621162555e-01
5.957377935965508797e-01
5.955898466915638956e-01
5.953828405558023729e-01
5.951153181298101114e-01
5.947859805868345173e-01
5.943943242674987193e-01
5.939406322977212049e-01
5.934253302019851795e-01
5.928484513498688546e-01
5.922098384538569960e-01
5.915099315283887105e-01
5.907505024316874742e-01
5.899348339359469229e-01
5.890672796312019788e-01
5.881526525821303419e-01
5.871961627816564278e-01
5.862041148971792737e-01
5.851846460702516683e-01
5.841476564640717406e-01
5.831039779886537655e-01
5.820645563292452529e-01
5.810401761211205773e-01
5.800415106049090497e-01
5.790788675625044846e-01
5.781612181415765050e-01
5.772947200034950210e-01
5.764815522385320357e-01
5.757198943414518766e-01
5.750050743373402717e-01
5.743310062581030717e-01
5.736910585698411502e-01
5.730783545741784391e-01
5.724861029134835633e-01
5.719083052410105505e-01
5.713405879826425338e-01
5.707806410432760824e-01
5.702279475558815758e-01
5.696829141593784396e-01
5.691459056254291049e-01
5.686167384685030246e-01
5.680947108532925505e-01
5.675787259884925717e-01
5.670672021559735043e-01
5.665580258530436009e-01
5.660489672202475564e-01
5.655385673445574302e-01
5.650270670903385639e-01
5.645169050171705560e-01
5.640125828883870707e-01
5.635199973376179283e-01
5.630455816322221807e-01
5.625956797341344906e-01
5.621762590012322480e-01
5.617926296477564474e-01
5.614488778332598073e-01
5.611471918037740370e-01
5.608875810836799758e-01
5.606683136212593510e-01
5.604868232487572044e-01
5.603403817142520449e-01
5.602260265747303070e-01
5.601399447429342704e-01
5.600770602616089722e-01
5.600314640098553731e-01
5.599976088739981872e-01
5.599715462662264720e-01
5.599515118912543610e-01
5.599377237986298272e-01
5.599317359838649200e-01
5.599357125780426436e-01
5.599516240035329329e-01
5.599800323679251512e-01
5.600182002833096195e-01
5.600577960797612498e-01
5.600831490309678973e-01
5.600710995439153184e-01
5.599926864357243073e-01
5.598160804236276267e-01
5.595102594180589861e-01
5.590496511395539603e-01
5.584203695509157850e-01
5.576282173123752184e-01
5.567075518463056039e-01
5.557292010572634222e-01
5.548056428746952484e-01
5.540925588278393654e-01
5.537866862712290672e-01
5.541198671291620581e-01
5.553484495670255594e-01
5.577366231004416974e-01
5.615328308497520293e-01
5.669400681341805193e-01
5.740825201908905662e-01
5.829717229159812053e-01
5.934754431619546633e-01
6.052929020931185899e-01
6.179418932443885293e-01
6.307661082490387816e-01
6.429717630843307941e-01
6.536980665076810304e-01
6.621143376589746499e-01
6.675209133789994365e-01
6.694225804127054147e-01
6.675530415744603818e-01
6.618523544279344417e-01
6.524179486639174463e-01
6.394518910676956214e-01
6.232177645096255159e-01
6.040110433853860261e-01
5.821418593676059849e-01
5.579271314929594716e-01
5.316882129450857253e-01
5.037500057698029998e-01
4.744382818766517684e-01
4.440738581938741825e-01
4.129646377408796032e-01
3.813985323253941684e-01
3.496412211823574645e-01
3.179415051088864685e-01
2.865434567335247151e-01
2.557005675664263955e-01
2.256852070036782787e-01
1.967880753288581697e-01
1.693063446635060809e-01
1.435237678766551617e-01
1.196886667710869712e-01
9.799538960587178549e-02
7.857279455636251297e-02
6.148136281502314393e-02
4.671929372201427677e-02
3.423695374889851317e-02
2.395787937317001015e-02
1.580338515214591011e-02
9.717372457799577923e-03
5.688275320474833752e-03
3.765573557312607011e-03
4.068499728261454340e-03
6.784777475382253176e-03
1.215828073716485047e-02
2.046663052438862929e-02
3.199181108518911465e-02
4.698772708428783362e-02
6.564836671649854072e-02
8.807945523255011899e-02
1.142755648920174005e-01
1.441041891410175801e-01
1.772984482720071919e-01
2.134599078811980077e-01
2.520717104143924137e-01
2.925205431924753907e-01
3.341250807804781453e-01
3.761686176526063963e-01
4.179336288542112032e-01
4.587352969752150345e-01
4.979507159892630486e-01
5.350417517604260098e-01
5.695715221274719742e-01
6.012154310543891267e-01
6.297674184838659706e-01
6.551414816476253122e-01
6.773680368134309404e-01
6.965843817957306783e-01
7.130188915924562387e-01
7.269698025284003773e-01
7.387807331332192362e-01
7.488157418091012651e-01
7.574365292895228752e-01
7.649835318325099998e-01
7.717617404015799654e-01
7.780315502011383444e-01
7.840046188981111275e-01
7.898442589869449915e-01
7.956692544259826860e-01
8.015595845426637389e-01
8.075628265970571373e-01
8.137007918705025933e-01
8.199764482257867471e-01
8.263808914553345542e-01
8.328994220304948293e-01
8.395155713786324192e-01
8.462126892153400970e-01
8.529739012961441436e-01
8.597817589068506017e-01
8.666183123884942940e-01
8.734653638242002582e-01
8.803041728779226194e-01
8.871142038371058192e-01
8.938712966694146722e-01
9.005461344894054587e-01
9.071035056316654188e-01
9.135020878811006551e-01
9.196942237218217464e-01
9.256255743414127934e-01
9.312351168153045755e-01
9.364561348261322138e-01
9.412183994329521575e-01
9.454509648746065587e-01
9.490845950415576215e-01
9.520531996950991616e-01
9.542945522593704322e-01
9.557511281213832977e-01
9.563715615974319739e-01
9.561124030335197421e-01
9.549393547117668302e-01
9.528273954631929499e-01
9.497600911779420230e-01
9.457291555850333431e-01
9.407350827568745633e-01
9.347886140834311686e-01
9.279120497108568344e-01
9.201396761461562157e-01
9.115174686717377739e-01
9.021027518023509995e-01
8.919641327248855056e-01
8.811812583114679853e-01
8.698436820376456158e-01
8.580486310110642112e-01
8.458981894415058544e-01
8.334966877056704249e-01
8.209486847527387443e-01
8.083571320400986249e-01
7.958208397221617769e-01
7.834309155867325014e-01
7.712670269560821801e-01
7.593949136499220653e-01
7.478660061512429902e-01
7.367188515954039563e-01
7.259812358488328954e-01
7.156720415782886757e-01
7.058027733534602000e-01
6.963793160735840537e-01
6.874042782444131916e-01
6.788795419709774404e-01
6.708081192734449694e-01
6.631945813402047030e-01
6.560440824995823483e-01
6.493607877675708906e-01
6.431466333372319877e-01
6.374006037229371646e-01
6.321179954598881157e-01
6.272893664479062270e-01
6.228996112269820085e-01
6.189278958953576826e-01
6.153487562989008453e-01
6.121338896194228330e-01
6.092537894569010071e-01
6.066788402901435173e-01
6.043802394588959626e-01
6.023312674336078754e-01
6.005089228427249459e-01
5.988953206880982538e-01
5.974779792394127043e-01
5.962485249496700668e-01
5.952003299027657235e-01
5.943263111532710585e-01
5.936178416527757573e-01
5.930647497395644674e-01
5.926556317544113828e-01
5.923778256887908267e-01
5.922171632836228383e-01
5.921581619681586250e-01
5.921851357407841299e-01
5.922839512722384292e-01
5.924434306421373364e-01
5.926554900922291758e-01
5.929140633844010022e-01
5.932137635728047531e-01
5.935492487975122522e-01
5.939154207284609299e-01
5.943077414110298218e-01
5.947219335538169727e-01
5.951530312103494591e-01
5.955943735590492061e-01
5.960371560504948985e-01
5.964706697096271437e-01
5.968828403180685971e-01
5.972606079300672999e-01
5.975901618609880117e-01
5.978575946726796264e-01
5.980504463599634057e-01
5.981597337776223267e-01
5.981812996374347158e-01
5.981155992611550953e-01
5.979660893872105198e-01
5.977372538931295942e-01
5.974334721592524655e-01
5.970592528028710877e-01
5.966201198321789967e-01
5.961228063156167600e-01
5.955742390244154194e-01
5.949801451491709692e-01
5.943443816509161870e-01
5.936691934353293121e-01
5.929557460202330432e-01
5.922042636332387477e-01
5.914137763558586780e-01
5.905821396247015187e-01
5.897069501193303864e-01
5.887871714621177865e-01
5.878244853112071233e-01
5.868234973577908242e-01
5.857908975656127559e-01
5.847344887423311377e-01
5.836628319767380724e-01
5.825853561447913442e-01
5.815121417675883642e-01
5.804529313968647131e-01
5.794158691330273392e-01
5.784069039211712226e-01
5.774301765381808504e-01
5.764887751224978540e-01
5.755850143595899748e-01
5.747200386464614841e-01
5.738933407433848277e-01
5.731029244241712117e-01
5.723462498968436840e-01
5.716213679834092343e-01
5.709273714297986579e-01
5.702637398997734142e-01
5.696290297241495271e-01
5.690198902328504893e-01
5.684311331765194986e-01
5.678567821703057739e-01
5.672913260483689601e-01
5.667304485881494713e-01
5.661712352755716715e-01
5.656123954944252130e-01
5.650548872652985111e-01
5.645027781924314425e-01
5.639636504839351527e-01
5.634478187218017187e-01
5.629663646233544760e-01
5.625288926184832672e-01
5.621419484000145239e-01
5.618082630628944418e-01
5.615264284634711167e-01
5.612907718155728531e-01
5.610916334883611079e-01
5.609164153466417169e-01
5.607514540521074675e-01
5.605842093097257450e-01
5.604049380293010252e-01
5.602072505097879240e-01
5.599876577586682114e-01
5.597449369299190014e-01
5.594800968850683898e-01
5.591968494964583147e-01
5.589018144001332011e-01
5.586039784535816732e-01
5.583136708264957448e-01
5.580416326110990699e-01
5.577985440226598257e-01
5.575949379552278540e-01
5.574410048322959721e-01
5.573456943957471044e-01
5.573150018844590381e-01
5.573500029407401080e-01
5.574453869371884807e-01
5.575888006856386525e-01
5.577606913083643647e-01
5.579341645270419203e-01
5.580749456170590594e-01
5.581422241019811104e-01
5.580910738283642036e-01
5.578763033649152270e-01
5.574569581055555112e-01
5.568009752328613171e-01
5.558903864657451788e-01
5.547279913413609709e-01
5.533458389565222291e-01
5.518144592235987300e-01
5.502508106546835087e-01
5.488231180828928579e-01
5.477515421740790647e-01
5.473039276670288444e-01
5.477855394112165488e-01
5.495213338506583778e-01
5.528295286377893358e-01
5.579863135690286136e-01
5.651835197877592698e-01
5.744833045262556226e-01
5.857754264891288365e-01
5.987434521856631608e-01
6.128472158341118359e-01
6.273303299726260551e-01
6.412619308892020253e-01
6.536179248746634141e-01
6.633955885560005594e-01
6.697379900391911001e-01
6.720321658811820864e-01
6.699511787158642928e-01
6.634352916022907554e-01
6.526333164750759419e-01
6.378335959077856554e-01
6.194050728344053791e-01
5.977555343246909736e-01
5.733058603835152756e-01
5.464762311416484497e-01
5.176797859888371267e-01
4.873196816875467463e-01
4.557864402803519233e-01
4.234538359662490259e-01
3.906735760196293206e-01
3.577713426021992826e-01
3.250477645511545277e-01
2.927859760858775862e-01
2.612631977353641610e-01
2.307601474852503665e-01
2.015619525503031251e-01
1.739480760333833032e-01
1.481741274788080931e-01
1.244518219686355787e-01
1.029330227416000443e-01
8.370074907268942876e-02
6.676706612070504310e-02
5.207712377058171249e-02
3.951977039309706452e-02
2.894555692693911997e-02
2.019122007934726071e-02
1.310747996081707001e-02
7.586313118290166635e-03
3.584726600542431640e-03
1.143020929111560058e-03
3.956871782773707658e-04
1.572796973844214907e-03
4.990134190505257639e-03
1.102784246463700546e-02
2.009926985241367037e-02
3.261313188358810899e-02
4.893275952010456287e-02
6.933599212402230538e-02
9.397865285313106165e-02
1.228643155374489204e-01
1.558234397039403585e-01
1.925051392393488103e-01
2.323840143889498999e-01
2.747825650396542030e-01
3.189071996945100351e-01
3.638934931178439691e-01
4.088551239460445630e-01
4.529312304875722783e-01
4.953281618396215280e-01
5.353531785186165237e-01
5.724392513779101854e-01
6.061613680010975447e-01
6.362454492944606965e-01
6.625708125877025623e-01
6.851660150192862009e-01
7.041968758092140845e-01
7.199458279588260012e-01
7.327836053492722268e-01
7.431365355438745990e-01
7.514539247850209325e-01
7.581794054741097799e-01
7.637283089455380036e-01
7.684714375961017030e-01
7.727247523267104512e-01
7.767444256191420315e-01
7.807268975049503901e-01
7.848132892802499594e-01
7.890967784827720433e-01
7.936311743438859700e-01
7.984394013258340195e-01
8.035213954341897669e-01
8.088613762685574748e-01
8.144343316576678760e-01
8.202112170017854531e-01
8.261624964447495945e-01
8.322601846384207747e-01
8.384788816546573376e-01
8.447963138302718722e-01
8.511936864146232296e-01
8.576557077580568844e-01
8.641698333337777260e-01
8.707245038391651093e-01
8.773067610169873465e-01
8.839000776141825444e-01
8.904830352826662576e-01
8.970286962738904801e-01
9.035039516545551042e-01
9.098684850882843289e-01
9.160738619543324912e-01
9.220636335826017937e-01
9.277749146618661236e-01
9.331410832208100192e-01
9.380945877745812123e-01
9.425688188773637677e-01
9.464988227459563142e-01
9.498216164600725708e-01
9.524769376564128365e-01
9.544084137321897643e-01
9.555644671616865260e-01
9.558985294866060300e-01
9.553689496758586142e-01
9.539394299126022769e-01
9.515803804508546904e-01
9.482707311216702628e-01
9.439993751918687170e-01
9.387657726626246202e-01
9.325798993621123856e-01
9.254622768477460681e-01
9.174447670906411556e-01
9.085719475544875579e-01
8.989019638808926072e-01
8.885058707827653279e-01
8.774655580584749259e-01
8.658712463902942247e-01
8.538194113708266197e-01
8.414111214332380406e-01
8.287500635102422741e-01
8.159397990917389709e-01
8.030807762528573424e-01
7.902680525723944083e-01
7.775900885793318729e-01
7.651281905492901547e-01
7.529559380125987467e-01
7.411382618161206359e-01
7.297304647314168946e-01
7.187778910868187765e-01
7.083167037069539873e-01
6.983754347003006124e-01
6.889763739112906293e-01
6.801360784078451793e-01
6.718650778597061723e-01
6.641674367783898525e-01
6.570407952715098254e-01
6.504769388835636157e-01
6.444623668934899019e-01
6.389783872481191729e-01
6.340009306888170215e-01
6.295007847942877266e-01
6.254447958713997835e-01
6.217979960238078085e-01
6.185260505869312198e-01
6.155972122159030224e-01
6.129833246418963100e-01
6.106601277840493225e-01
6.086074080709709122e-01
6.068090456715242720e-01
6.052523939168468203e-01
6.039265026882840726e-01
6.028194848616799106e-01
6.019161266835371116e-01
6.011968899493069785e-01
6.006386168927746461e-01
6.002162815215414948e-01
5.999048723015070195e-01
5.996809234219495632e-01
5.995236915925907795e-01
5.994160599636635389e-01
5.993450129689872341e-01
5.993013534073765580e-01
5.992785431031728560e-01
5.992710875592341946e-01
5.992732855845366302e-01
5.992789299776386525e-01
5.992818046759331718e-01
5.992762768462092104e-01
5.992574000299233372e-01
5.992205555350063051e-01
5.991611363240674226e-01
5.990746217376354821e-01
5.989568311336885831e-01
5.988038792588825654e-01
5.986116856948333620e-01
5.983753871820947090e-01
5.980891228826985540e-01
5.977464084514443332e-01
5.973409556835902467e-01
5.968674868113414966e-01
5.963220927083690004e-01
5.957021494735628142e-01
5.950063536275638221e-01
5.942354500924424965e-01
5.933934823379449774e-01
5.924885058123416925e-01
5.915318177754194107e-01
5.905360288115444334e-01
5.895133385204336385e-01
5.884750270419143447e-01
5.874319645026175873e-01
5.863950852409089975e-01
5.853748717111453281e-01
5.843798582586750001e-01
5.834151979777719710e-01
5.824822941659986153e-01
5.815793938100630722e-01
5.807022838013535804e-01
5.798446169935049799e-01
5.789981655335487698e-01
5.781535658813929945e-01
5.773018100785840545e-01
5.764361919841820558e-01
5.755540341839808782e-01
5.746575014838268824e-01
5.737531382059570806e-01
5.728503952877692651e-01
5.719599011690463808e-01
5.710920249430537776e-01
5.702557121084392833e-01
5.694574428084935303e-01
5.687005409422578595e-01
5.679853351770207670e-01
5.673103523959142080e-01
5.666739790905361840e-01
5.660755676757898147e-01
5.655153190287041109e-01
5.649931966822230311e-01
5.645078232500069237e-01
5.640561340107523858e-01
5.636337013389125516e-01
5.632350661182106144e-01
5.628537306365675175e-01
5.624821810418363377e-01
5.621125304526710664e-01
5.617378341897427685e-01
5.613534106520701172e-01
5.609573898522262070e-01
5.605502788181200291e-01
5.601340100533762634e-01
5.597112431323096882e-01
5.592854226034018605e-01
5.588613448769483849e-01
5.584453388349415182e-01
5.580443482523351761e-01
5.576642055983878077e-01
5.573082370712687528e-01
5.569771105529373045e-01
5.566698017329902992e-01
5.563847915270543343e-01
5.561206888477434607e-01
5.558761526977449297e-01
5.556496235751580137e-01
5.554393525022480738e-01
5.552436506569111696e-01
5.550609439753595442e-01
5.548894760864750975e-01
5.547270170610771878e-01
5.545711624728659750e-01
5.544203760651942314e-01
5.542751108797250303e-01
5.541380799549022740e-01
5.540134533048326482e-01
5.539057066697818943e-01
5.538191565164967134e-01
5.537586151331765905e-01
5.537305038995530282e-01
5.537430855545140140e-01
5.538048745835193465e-01
5.539215171819469319e-01
5.540924720300270945e-01
5.543087279386054167e-01
5.545518465872953939e-01
5.547939396106780219e-01
5.549982280907184151e-01
5.551203234499466621e-01
5.551109460948795427e-01
5.549207972746308393e-01
5.545073857308799870e-01
5.538427363005995474e-01
5.529211155582431925e-01
5.517667080521271306e-01
5.504413677439468078e-01
5.490518472050778254e-01
5.477548728288574864e-01
5.467578814593923031e-01
5.463136198142575228e-01
5.467078662685063151e-01
5.482404842061765482e-01
5.512002701837059870e-01
5.558337896360288077e-01
5.623085774973133333e-01
5.706726754316817640e-01
5.808152349865172148e-01
5.924354706648258251e-01
6.050285232665923996e-01
6.178966521782065513e-01
6.301924364821529512e-01
6.409957004225657062e-01
6.494151631036573225e-01
6.546913435597765396e-01
6.562699736948469642e-01
6.538258128704996786e-01
6.472402241066352868e-01
6.365538885131554192e-01
6.219176010234266361e-01
6.035546475970559044e-01
5.817382853439012624e-01
5.567818594659008635e-01
5.290367214893001435e-01
4.988931517219043488e-01
4.667806689755679694e-01
4.331653032594887098e-01
3.985423803739544524e-01
3.634243583968865265e-01
3.283243699723780717e-01
2.937378151837677920e-01
2.601261040802900770e-01
2.279056971552498312e-01
1.974413205187694476e-01
1.690391605510492279e-01
1.429376515992222818e-01
1.192979533707017037e-01
9.819858922524038469e-02
7.963705948940097423e-02
6.353780567406652757e-02
4.976405608750583687e-02
3.813190912079961192e-02
2.842691003889663559e-02
2.042410763310825716e-02
1.391137958670007890e-02
8.713874202518512302e-03
4.716434914075307017e-03
1.881408557652397562e-03
2.604831343213653838e-04
0.000000000000000000e+00
1.338999492426051763e-03
4.598672602833142609e-03
1.016210735091199746e-02
1.844459530301661987e-02
2.985666368724226860e-02
4.476374987605530320e-02
6.344726597088168329e-02
8.607116244606866085e-02
1.126566600727569867e-01
1.430667960428200769e-01
1.770021672486736253e-01
2.140090007022071306e-01
2.534995162385818568e-01
2.947825860440518864e-01
3.371011190816697867e-01
3.796722770429569738e-01
4.217271772857406620e-01
4.625472225806327997e-01
5.014944626582209519e-01
5.380340065750355283e-01
5.717476568782171586e-01
6.023393739552447279e-01
6.296345857760787812e-01
6.535759190198793256e-01
6.742168337638743125e-01
6.917126145603997855e-01
7.063070772493897920e-01
7.183142161724056507e-01
7.280960414751762588e-01
7.360392292492832222e-01
7.425329550766428532e-01
7.479491936072708569e-01
7.526261100556763672e-01
7.568551907709941684e-01
7.608729021019293715e-01
7.648574274947781415e-01
7.689303398200402206e-01
7.731623097595039518e-01
7.775815757955619745e-01
7.821839811326203318e-01
7.869437114778088382e-01
7.918240466919685971e-01
7.967871656337430775e-01
8.018016518390664871e-01
8.068465110630875792e-01
8.119114413592276591e-01
8.169943682420399700e-01
8.220980662274468553e-01
8.272273719496232580e-01
8.323873603081535233e-01
8.375820074768398626e-01
8.428128764824160957e-01
8.480779048835012102e-01
8.533708638661889889e-01
8.586819636358624663e-01
8.639993410807784713e-01
8.693104351626004256e-01
8.746022722248534276e-01
8.798606021745354333e-01
8.850688754513849066e-01
8.902080159779905966e-01
8.952567683927874498e-01
9.001915464762724195e-01
9.049853086879942055e-01
9.096063630720268023e-01
9.140185138011711619e-01
9.181829455354713065e-01
9.220607658004524865e-01
9.256146986480451311e-01
9.288092995450456524e-01
9.316101996154266818e-01
9.339833460788824482e-01
9.358948720357747053e-01
9.373114746388557794e-01
9.382005918094613595e-01
9.385297866487507523e-01
9.382655902708936235e-01
9.373728905802776179e-01
9.358158732463588425e-01
9.335604926171963136e-01
9.305774298384636989e-01
9.268443678862809954e-01
9.223472805880370551e-01
9.170814861372800220e-01
9.110532773826880426e-01
9.042818768160179044e-01
8.968005532351148723e-01
8.886560037106869814e-01
8.799061331756317106e-01
8.706171404533180613e-01
8.608607998911126380e-01
8.507121369065722138e-01
8.402470412188900450e-01
8.295394910751066053e-01
8.186588645066106285e-01
8.076683343357509148e-01
7.966249099285993562e-01
7.855806961555911183e-01
7.745842966245171102e-01
7.636815164824299895e-01
7.529154867291700803e-01
7.423271342713380072e-01
7.319565722604337576e-01
7.218447949942807806e-01
7.120343274569860270e-01
7.025679426392461568e-01
6.934858350654811154e-01
6.848225996027283990e-01
6.766051966206945156e-01
6.688521418303352561e-01
6.615733925224931422e-01
6.547703609829857996e-01
6.484360626876313205e-01
6.425559795114474948e-01
6.371100933301705460e-01
6.320757150839875216e-01
6.274300192796877784e-01
6.231513594151478763e-01
6.192194116883815713e-01
6.156151013719848297e-01
6.123211671745605322e-01
6.093231862669337140e-01
6.066100594188039707e-01
6.041731999809747400e-01
6.020046708666821900e-01
6.000952740324834167e-01
5.984334913246260879e-01
5.970054470983912065e-01
5.957953815684720045e-01
5.947860441642109919e-01
5.939589647706884357e-01
5.932950081029007006e-01
5.927753332761180882e-01
5.923822796040387750e-01
5.920995650430704860e-01
5.919116726708801846e-01
5.918030001301406440e-01
5.917576301987879095e-01
5.917600629750234820e-01
5.917963599173867717e-01
5.918548005564940873e-01
5.919256443926521616e-01
5.920003396226471981e-01
5.920708865407997568e-01
5.921298914356594167e-01
5.921712947889377077e-01
5.921911975239444459e-01
5.921881556148973491e-01
5.921628250404498139e-01
5.921173041940743786e-01
5.920545277524644767e-01
5.919777592254087395e-01
5.918898672303039010e-01
5.917921246492714449e-01
5.916829972407935401e-01
5.915578894791424513e-01
5.914101757013194849e-01
5.912327609566681019e-01
5.910190987412953234e-01
5.907631972969757950e-01
5.904590865999250759e-01
5.901007383163145992e-01
5.896830031901132418e-01
5.892031258089536205e-01
5.886617576802672946e-01
5.880626451664379140e-01
5.874111642121668808e-01
5.867128125637044445e-01
5.859726845294934705e-01
5.851958591311439140e-01
5.843877431895718733e-01
5.835536825609541900e-01
5.826981450722930056e-01
5.818243604928023949e-01
5.809349336520452933e-01
5.800330254743280012e-01
5.791231357103285848e-01
5.782108481229912833e-01
5.773017431771834129e-01
5.764003036778131417e-01
5.755095507661986964e-01
5.746314368026284036e-01
5.737674006479662747e-01
5.729185436792494368e-01
5.720854251016838088e-01
5.712679313252511104e-01
5.704656035048105700e-01
5.696782949015362085e-01
5.689067028766487955e-01
5.681524642764339550e-01
5.674177897922723091e-01
5.667049004763589082e-01
5.660157900811175757e-01
5.653525999006143721e-01
5.647180729295158130e-01
5.641151930683026006e-01
5.635459120691819201e-01
5.630098661154943063e-01
5.625040151172702174e-01
5.620233283549136427e-01
5.615618300348441672e-01
5.611132332428596659e-01
5.606711430830422227e-01
5.602295565313255565e-01
5.597841712527114044e-01
5.593339668172594425e-01
5.588817816589242149e-01
5.584331497670000921e-01
5.579941141694773066e-01
5.575695759318421985e-01
5.571630566041667620e-01
5.567773914115308198e-01
5.564152421973129758e-01
5.560788076262934698e-01
5.557690563657293747e-01
5.554852745905145550e-01
5.552253019557888969e-01
5.549861140546081817e-01
5.547641634919975306e-01
5.545552574951586600e-01
5.543543840223137398e-01
5.541561578065770099e-01
5.539560567963002224e-01
5.537518569594415130e-01
5.535443628880187816e-01
5.533368452502251955e-01
5.531333502547934877e-01
5.529368008271351442e-01
5.527479666700487737e-01
5.525657131596735105e-01
5.523879316216782076e-01
5.522121462393938529e-01
5.520354550265273996e-01
5.518544366402957646e-01
5.516657563747542348e-01
5.514673902172781972e-01
5.512597253303803679e-01
5.510459454986689209e-01
5.508317440500261064e-01
5.506248844717565039e-01
5.504350104924626841e-01
5.502735093310135994e-01
5.501528411602454316e-01
5.500850801117931343e-01
5.500801834180741867e-01
5.501448600958376289e-01
5.502823632793520936e-01
5.504926070410132155e-01
5.507716482294109372e-01
5.511101298977294505e-01
5.514912664246975904e-01
5.518894865957335583e-01
5.522704916875214032e-01
5.525926519525881098e-01
5.528091621499482411e-01
5.528705822530537439e-01
5.527280395690041814e-01
5.523378734180928173e-01
5.516682619257546882e-01
5.507073839903855461e-01
5.494719006525197180e-01
5.480148008946532645e-01
5.464324113902019331e-01
5.448703907413194880e-01
5.435275384743682991e-01
5.426552605562864340e-01
5.425504220018160240e-01
5.435400052252008507e-01
5.459571289134710348e-01
5.501091639858908255e-01
5.562394781827972867e-01
5.644850061841479860e-01
5.748331604586942589e-01
5.870837728047173520e-01
6.008240666155106879e-01
6.154260025092457287e-01
6.300747937738719884e-01
6.438339846628360341e-01
6.557445312765897150e-01
6.649421169139040355e-01
6.707635367584297015e-01
6.728105894799847331e-01
6.709551945980756216e-01
6.652938703652213626e-01
6.560761781288035888e-01
6.436322563312431022e-01
6.283151591750493203e-01
6.104637223064692808e-01
5.903850152387326577e-01
5.683516742411658385e-01
5.446078121546227280e-01
5.193777804717472080e-01
4.928741580670017997e-01
4.653034072326008297e-01
4.368688520000094111e-01
4.077714535174138955e-01
3.782097738408211618e-01
3.483812285842521894e-01
3.184864999228465554e-01
2.887374562590078741e-01
2.593665181678255771e-01
2.306331833733394343e-01
2.028228152555097696e-01
1.762348555472285638e-01
1.511618934887213883e-01
1.278652610667993517e-01
1.065540959522366382e-01
8.737211227983154860e-02
7.039215474647875226e-02
5.561651723909394329e-02
4.298179310123545482e-02
3.236863985732518767e-02
2.361707898508114134e-02
1.654650599269530398e-02
1.097796024500058421e-02
6.755886582397119255e-03
3.767535528559518010e-03
1.959027377863631347e-03
1.347013753984438456e-03
2.024205741644802270e-03
4.157026412397568649e-03
7.974853485375854589e-03
1.375205988296523962e-02
2.178526304365990818e-02
3.236838849632694970e-02
4.576765234144125616e-02
6.219796237185754029e-02
8.180195374499737992e-02
1.046330566325218703e-01
1.306441908089471804e-01
1.596830552945923132e-01
1.914937007850001094e-01
2.257234544248740149e-01
2.619347938471788262e-01
2.996224551133535585e-01
3.382358003830898130e-01
3.772050127860738233e-01
4.159678764887060898e-01
4.539931942092329531e-01
4.907981294523718341e-01
5.259593140794223132e-01
5.591196058707312844e-01
5.899925474575122841e-01
6.183655234765788045e-01
6.441018288108002476e-01
6.671416173530124727e-01
6.875014580776090956e-01
7.052717737604567994e-01
7.206109681106260823e-01
7.337350914561266979e-01
7.449028680098144228e-01
7.543974180389911854e-01
7.625071835610826021e-01
7.695088052573371140e-01
7.756539110819071769e-01
7.811603840253242836e-01
7.862075102629479950e-01
7.909341893226822240e-01
7.954399981389455032e-01
7.997893912048705811e-01
8.040188804674166523e-01
8.081459475928540748e-01
8.121778343114891552e-01
8.161189201011658234e-01
8.199765548214450472e-01
8.237658001533001428e-01
8.275130730345738872e-01
8.312578922001816473e-01
8.350518252812380027e-01
8.389545284574893014e-01
8.430278325954967400e-01
8.473293132274932749e-01
8.519063652503322537e-01
8.567910593007439513e-01
8.619957946150216266e-01
8.675101585501552304e-01
8.732999273743908830e-01
8.793090641634042637e-01
8.854646807388013574e-01
8.916838516678244897e-01
8.978806070820872787e-01
9.039715572257420728e-01
9.098793338877921855e-01
9.155340400694931269e-01
9.208734243208649417e-01
9.258422023902765918e-01
9.303904990258942131e-01
9.344714973446228701e-01
9.380389971967948437e-01
9.410460603203891772e-01
9.434455485042676504e-01
9.451921999143262365e-01
9.462450087542775279e-01
9.465688315390592411e-01
9.461350277113711460e-01
9.449217865358341406e-01
9.429148453035522959e-01
9.401084580702228077e-01
9.365057209675258232e-01
9.321176774728585634e-01
9.269616949080181634e-01
9.210602030195433887e-01
9.144403252269857063e-01
9.071338901674932398e-01
8.991770038960908984e-01
8.906090247822746608e-01
8.814715907726609068e-01
8.718085358121103745e-01
8.616669595122243841e-01
8.510987840010053596e-01
8.401616034053089876e-01
8.289180646320783996e-01
8.174340892777309797e-01
8.057770472710277243e-01
7.940148998262650526e-01
7.822163885092909830e-01
7.704513311944587439e-01
7.587899515751945767e-01
7.473010174048662080e-01
7.360495239511248844e-01
7.250948625824360505e-01
7.144897583164875332e-01
7.042794686505278179e-01
6.945007597957171264e-01
6.851810375547318088e-01
6.763385452495387362e-01
6.679839429515541660e-01
6.601224983591948980e-01
6.527556973067401014e-01
6.458816847654833548e-01
6.394949988165041788e-01
6.335865999648444546e-01
6.281447374038819920e-01
6.231562140333215538e-01
6.186070802479524122e-01
6.144822566643539652e-01
6.107646139235818339e-01
6.074345805526106812e-01
6.044709067531373048e-01
6.018521949326363085e-01
5.995580853680286815e-01
5.975692269452193006e-01
5.958661825981546034e-01
5.944283040430038412e-01
5.932335334974105923e-01
5.922590939710725699e-01
5.914821838081110172e-01
5.908800505041680307e-01
5.904297974994661136e-01
5.901087482984526122e-01
5.898955983685523208e-01
5.897716261250798286e-01
5.897209663920044420e-01
5.897296455126816994e-01
5.897841110063590797e-01
5.898704493115580760e-01
5.899748892269072176e-01
5.900850363704759349e-01
5.901906886314705059e-01
5.902836297595439596e-01
5.903569611851875454e-01
5.904050712276858182e-01
5.904245729157238110e-01
5.904153387415371768e-01
5.903804515301975808e-01
5.903246344426436032e-01
5.902518091531610001e-01
5.901630770016017546e-01
5.900560395454359508e-01
5.899253000316253548e-01
5.897633695496200534e-01
5.895615091029553501e-01
5.893106410881516766e-01
5.890026595117103803e-01
5.886320853187345659e-01
5.881974793799455981e-01
5.877019271208969720e-01
5.871522764659462545e-01
5.865573627962552550e-01
5.859259949638424558e-01
5.852655658881684708e-01
5.845814921020817678e-01
5.838769211954006888e-01
5.831522009046770094e-01
5.824044340291381072e-01
5.816280340661124093e-01
5.808167029859001573e-01
5.799660004582123385e-01
5.790749310824487850e-01
5.781456840439955780e-01
5.771822914663877757e-01
5.761897749704223415e-01
5.751744282474198222e-01
5.741445087211918263e-01
5.731103118964793186e-01
5.720832508964459606e-01
5.710743636049346872e-01
5.700931656289491833e-01
5.691474746578479849e-01
5.682437933497470617e-01
5.673872226065430624e-01
5.665804683423154575e-01
5.658225733611981223e-01
5.651084511972344071e-01
5.644298042888604705e-01
5.637770708603262459e-01
5.631414448053246868e-01
5.625161619102145849e-01
5.618969429686737627e-01
5.612820594662732976e-01
5.606723998983889068e-01
5.600714662657875209e-01
5.594850368891222114e-01
5.589203244870928344e-01
5.583846971975958695e-01
5.578844025813411989e-01
5.574238708516110474e-01
5.570057456413903818e-01
5.566311830138008787e-01
5.562998413434467881e-01
5.560095114696856911e-01
5.557558929831212247e-01
5.555329363737766535e-01
5.553336400041000154e-01
5.551508700192548940e-01
5.549778301047094686e-01
5.548081171007781531e-01
5.546357291324479633e-01
5.544555171769223190e-01
5.542640610897966447e-01
5.540602642670258149e-01
5.538449402037273206e-01
5.536194962369900274e-01
5.533846503847108522e-01
5.531400346620594100e-01
5.528847286659044347e-01
5.526181292763741038e-01
5.523405663671205890e-01
5.520535346541128874e-01
5.517598576155686718e-01
5.514640606725171867e-01
5.511727229166221154e-01
5.508942145415285374e-01
5.506375403297412152e-01
5.504108142525854230e-01
5.502203316560272395e-01
5.500707276201919349e-01
5.499658260084379080e-01
5.499093198296058915e-01
5.499046782123213628e-01
5.499544336125936628e-01
5.500596079392210402e-01
5.502198882451159179e-01
5.504343747721220925e-01
5.507019802126258412e-01
5.510206427517410077e-01
5.513855400824445585e-01
5.517873861424973381e-01
5.522116707367803468e-01
5.526388040238854327e-01
5.530445478615448884e-01
5.534001776852315313e-01
5.536723743542060205e-01
5.538235765464414317e-01
5.538137698877194648e-01
5.536040738441680986e-01
5.531616502413296832e-01
5.524652386384854008e-01
5.515111113984738633e-01
5.503198996357401285e-01
5.489446978179184367e-01
5.474796999620923366e-01
5.460672926234302338e-01
5.449012464217422025e-01
5.442243348468618347e-01
5.443195135017029340e-01
5.454942489758725088e-01
5.480577103724704191e-01
5.522906917316545705e-01
5.584089673874561566e-01
5.665225478545177218e-01
5.765952544551566916e-01
5.884102705877771733e-01
6.015481208956234838e-01
6.153846039531756240e-01
6.291169585211335846e-01
6.418247338374554189e-01
6.525644642104455606e-01
6.604833200405864080e-01
6.649224321303681684e-01
6.654780795041752572e-01
6.620052963675624458e-01
6.545738993023846319e-01
6.434028464280441284e-01
6.287971118891824140e-01
6.110997110650773223e-01
5.906612668890529605e-01
5.678244573704374076e-01
5.429191816946070670e-01
5.162641913360355161e-01
4.881710835502617862e-01
4.589468252852881291e-01
4.288922126344247299e-01
3.982963371803125985e-01
3.674302056672644201e-01
3.365441942495435712e-01
3.058726026487733063e-01
2.756446906629093641e-01
2.460975533678960159e-01
2.174844783258314540e-01
1.900739943663968812e-01
1.641387158695211124e-01
1.399370075619095766e-01
1.176923821856702967e-01
9.757511068729407544e-02
7.968892559551532528e-02
6.406412622366847165e-02
5.065736973915352381e-02
3.935789242085097062e-02
2.999962439827630334e-02
2.237842656972560684e-02
1.627329812208849757e-02
1.147001053940727155e-02
7.785511828451052718e-03
5.091383667923998768e-03
3.334217943437300935e-03
2.550395067018873529e-03
2.873189328639169648e-03
4.531310965819324021e-03
7.838964222047883901e-03
1.317774772548868656e-02
2.097076613830795022e-02
3.164992527520915644e-02
4.561868041061400980e-02
6.321383716672857034e-02
8.467050154524569106e-02
1.100936398720773757e-01
1.394384035140947553e-01
1.725002979763330946e-01
2.089159912194587521e-01
2.481755896281761520e-01
2.896464670921011231e-01
3.326067615727320015e-01
3.762844275395373361e-01
4.198968040340259056e-01
4.626866256073299266e-01
5.039525605149413057e-01
5.430742817900882091e-01
5.795326425832589834e-01
6.129250324827277829e-01
6.429755988315379867e-01
6.695401101908646790e-01
6.926053041390112242e-01
7.122822659801728573e-01
7.287930999698497558e-01
7.424505930801590381e-01
7.536319251010339393e-01
7.627491131742776265e-01
7.702199536789171574e-01
7.764431604516439656e-01
7.817800599802309236e-01
7.865432422794240708e-01
7.909910931434247505e-01
7.953267301122917132e-01
7.997002861786903782e-01
8.042140243175164294e-01
8.089297270803250672e-01
8.138772515097807414e-01
8.190628655678235948e-01
8.244763761099400678e-01
8.300967739329463413e-01
8.358967059197817129e-01
8.418461777240426880e-01
8.479154952485963292e-01
8.540771330324470334e-01
8.603063830364328091e-01
8.665811165159185148e-01
8.728813151984307073e-01
8.791888271118648568e-01
8.854873078168068457e-01
8.917620496124007978e-01
8.979994242904651980e-01
9.041858568082046244e-01
9.103066663054100172e-01
9.163453157115319936e-01
9.222830595764690553e-01
9.280983271358598241e-01
9.337654923957883213e-01
9.392536061189784569e-01
9.445259515476946977e-01
9.495406185383583608e-01
9.542514636413368390e-01
9.586087159453324791e-01
9.625591808528073390e-01
9.660466686660684754e-01
9.690131861611550601e-01
9.714007879241499666e-01
9.731535152247012821e-01
9.742188375548905821e-01
9.745483416357190176e-01
9.740979865046586195e-01
9.728286504737202467e-01
9.707073552051406207e-01
9.677086396821559244e-01
9.638150622632257747e-01
9.590164233939628691e-01
9.533084469713217768e-01
9.466920580318987088e-01
9.391736415785760794e-01
9.307657099543158452e-01
9.214873344096514707e-01
9.113644020590545569e-01
9.004303638054915737e-01
8.887281492582113085e-01
8.763132628278733627e-01
8.632571489625813221e-01
8.496495760010775999e-01
8.355991786224878926e-01
8.212318488092813507e-01
8.066871920804365992e-01
7.921136871492782117e-01
7.776631339262669584e-01
7.634846024645707274e-01
7.497180829902805321e-01
7.364884731531542439e-01
7.239008351845053202e-01
7.120375615840048855e-01
7.009572317390380114e-01
6.906942324246778675e-01
6.812585723755952838e-01
6.726364790934327154e-01
6.647930165511537481e-01
6.576773681618452994e-01
6.512299671915215971e-01
6.453894627886436197e-01
6.400976962847408913e-01
6.353022777801682341e-01
6.309576102207936632e-01
6.270252815385395362e-01
6.234739535347204598e-01
6.202782953701730939e-01
6.174168028897326632e-01
6.148691908633581171e-01
6.126145786047243469e-01
6.106313004465506733e-01
6.088980341862855195e-01
6.073950520455799751e-01
6.061046303023416293e-01
6.050106493368359040e-01
6.040981064392823008e-01
6.033531229788740013e-01
6.027633280545134919e-01
6.023179002380336655e-01
6.020066480477930249e-01
6.018183381734187876e-01
6.017392687288658504e-01
6.017529913399108921e-01
6.018412239337087577e-01
6.019852627943331758e-01
6.021672092951406707e-01
6.023708296860339484e-01
6.025821943303131256e-01
6.027901396238888321e-01
6.029863626142659694e-01
6.031649111149628428e-01
6.033210304626377418e-01
6.034497459226055849e-01
6.035450135953928097e-01
6.036001072763381714e-01
6.036088531556209613e-01
6.035664768159541005e-01
6.034692718561625036e-01
6.033135661428992158e-01
6.030952097312805016e-01
6.028102681104869909e-01
6.024564322815517681e-01
6.020341090612135737e-01
6.015464884102503795e-01
6.009986158556059888e-01
6.003961870096226061e-01
5.997448735202171033e-01
5.990503017094956917e-01
5.983180938124299519e-01
5.975535035322285804e-01
5.967609613926454504e-01
5.959442636249248082e-01
5.951075629214128693e-01
5.942563633934612177e-01
5.933975552562613665e-01
5.925383614806483124e-01
5.916849680046427640e-01
5.908417870875533051e-01
5.900117458788753932e-01
5.891971266317790334e-01
5.884000377096301193e-01
5.876220780974035218e-01
5.868637008516932596e-01
5.861241406252877262e-01
5.854022039763959739e-01
5.846974126488113654e-01
5.840107376695859998e-01
5.833445941551052005e-01
5.827023842562939482e-01
5.820880804708161715e-01
5.815060063471959584e-01
5.809605396775905373e-01
5.804554203811702617e-01
5.799927059745986213e-01
5.795718249315628956e-01
5.791892748133780078e-01
5.788391535192467519e-01
5.785141386796666119e-01
5.782062533120373438e-01
5.779070871342175675e-01
5.776078953704226748e-01
5.773004418810550042e-01
5.769788771535804273e-01
5.766417579965730233e-01
5.762928241525879791e-01
5.759398635640160524e-01
5.755922271991824601e-01
5.752583585014838796e-01
5.749445141581310814e-01
5.746548162324809361e-01
5.743918322476522231e-01
5.741568557185465771e-01
5.739497961944541871e-01
5.737692273523009590e-01
5.736129834735093080e-01
5.734789657261476492e-01
5.733654321434711321e-01
5.732703978848121551e-01
5.731904940582199792e-01
5.731201817122697495e-01
5.730520926325703979e-01
5.729784120814296333e-01
5.728923853042411363e-01
5.727890743617216618e-01
5.726653714800171713e-01
5.725200058129549241e-01
5.723540361443406610e-01
5.721714896591121313e-01
5.719793587762251885e-01
5.717865060490401330e-01
5.716018970519438636e-01
5.714331863057706684e-01
5.712862669359217715e-01
5.711654177775775665e-01
5.710733540494101756e-01
5.710110506791523655e-01
5.709777889310230226e-01
5.709718191828294653e-01
5.709914480741986598e-01
5.710357733607400732e-01
5.711042602863602990e-01
5.711949930563731126e-01
5.713022447173281559e-01
5.714143744189554841e-01
5.715127810536559938e-01
5.715720268818378358e-01
5.715607595126470653e-01
5.714429846433541904e-01
5.711797401671081520e-01
5.707320321969717725e-01
5.700660835666391257e-01
5.691610283340722276e-01
5.680179480242890655e-01
5.666687351375989667e-01
5.651838862883111769e-01
5.636789803527517684e-01
5.623192607982441249e-01
5.613206250961189081e-01
5.609446702103544347e-01
5.614860979426039567e-01
5.632522234781509596e-01
5.665353826838315232e-01
5.715793267142126322e-01
5.785409185723566772e-01
5.874494133476677593e-01
5.981675020098062845e-01
6.103606819156606189e-01
6.234835878482511973e-01
6.367927719296353484e-01
6.493938598843811416e-01
6.603249581951684544e-01
6.686657257554800005e-01
6.736461085975153917e-01
6.747223291898407638e-01
6.716002652185260047e-01
6.642108563185931125e-01
6.526597436087304693e-01
6.371740649755037733e-01
6.180596848058590442e-01
5.956725758192895626e-01
5.704023600107828162e-01
5.426633457749368006e-01
5.128881007019370220e-01
4.815201574828633091e-01
4.490046211338660220e-01
4.157771774422192590e-01
3.822531337513098149e-01
3.488188400126573385e-01
3.158278599913829088e-01
2.836030001128607148e-01
2.524429305395601841e-01
2.226297477108973299e-01
1.944325431645427815e-01
1.681027634947976357e-01
1.438604218808311463e-01
1.218749353537471602e-01
1.022474508992631259e-01
8.500069801051907126e-02
7.007871390840914039e-02
5.735539094962999185e-02
4.664969022708426172e-02
3.774602142545679939e-02
3.041901437194005631e-02
2.446162367008114513e-02
1.971431110203258896e-02
1.609193231475136709e-02
1.360491828526511071e-02
1.237234883191595802e-02
1.262558019435922052e-02
1.470153158900910917e-02
1.902488764499121743e-02
2.607903962664731568e-02
3.636685219867069607e-02
5.036412774165038853e-02
6.847037102509556661e-02
9.096227750804841694e-02
1.179549212663517088e-01
1.493744847657541008e-01
1.849452757700117966e-01
2.241928186659754574e-01
2.664636227205407493e-01
3.109603551602214133e-01
3.567886650220278288e-01
4.030099860027552272e-01
4.486943974931604795e-01
4.929687493340219606e-01
5.350569426819491436e-01
5.743110270749700597e-01
6.102329749533865755e-01
6.424872642637338149e-01
6.709043163901040607e-01
6.954749873183103670e-01
7.163366807102808931e-01
7.337520752308688277e-01
7.480818197565912708e-01
7.597529630025503522e-01
7.692255991187055830e-01
7.769609956491547731e-01
7.833946060561092217e-01
7.889163766686511092e-01
7.938589988258886176e-01
7.984932090237701896e-01
8.030285048582781471e-01
8.076175842316035691e-01
8.123631571287459607e-01
8.173262502733087409e-01
8.225352273234087797e-01
8.279944030818564560e-01
8.336911111129510221e-01
8.396009275928817406e-01
8.456918070670262910e-01
8.519280595851284055e-01
8.582742951555897282e-01
8.646987141999620263e-01
8.711751269856327085e-01
8.776834697068807145e-01
8.842089389349017114e-01
8.907401656255904410e-01
8.972669144737843716e-01
9.037775003207622060e-01
9.102558488506844458e-01
9.166783799470099581e-01
9.230115001860421664e-01
9.292106953597973895e-01
9.352216223231566428e-01
9.409827307533438212e-01
9.464284890459242483e-01
9.514923355696682794e-01
9.561088773670811669e-01
9.602155090870163612e-01
9.637539532597667602e-01
9.666717589303397418e-01
9.689232266889868939e-01
9.704693860612982892e-01
9.712773703083135146e-01
9.713200925074836345e-01
9.705767898455064380e-01
9.690339193660617578e-01
9.666853341304741942e-01
9.635312354093241716e-01
9.595763062401292398e-01
9.548279349694901441e-01
9.492952690428138052e-01
9.429890181433213669e-01
9.359211969614511517e-01
9.281043481004769280e-01
9.195509882039027971e-01
9.102746211331891324e-01
9.002927913941032312e-01
8.896312088917432970e-01
8.783274201023618666e-01
8.664330782307347878e-01
8.540147706098517588e-01
8.411538360876082976e-01
8.279454191246768957e-01
8.144965460566611082e-01
8.009228574132527534e-01
7.873440012690815504e-01
7.738784547009520676e-01
7.606391163858907678e-01
7.477305793699358105e-01
7.352477481410424343e-01
7.232747021473784343e-01
7.118831632376803054e-01
7.011309741201905421e-01
6.910614578203742031e-01
6.817039638335355978e-01
6.730749866226699574e-01
6.651788655167534259e-01
6.580075991348011133e-01
6.515403337525522698e-01
6.457436590911256324e-01
6.405733977788377054e-01
6.359775931434350493e-01
6.318998282532084509e-01
6.282822509375829423e-01
6.250682992756193546e-01
6.222053731925496489e-01
6.196472505547347964e-01
6.173554010630697420e-01
6.152984822302378642e-01
6.134503856386912535e-01
6.117881892750394179e-01
6.102912991438411705e-01
6.089420213912934976e-01
6.077266548248756450e-01
6.066359064459478923e-01
6.056642124417246364e-01
6.048085130586822178e-01
6.040672725515092711e-01
6.034400583700803011e-01
6.029273987961885073e-01
6.025303980693537120e-01
6.022497895354901321e-01
6.020846229260208293e-01
6.020312408118189129e-01
6.020830588241226078e-01
6.022309228848050644e-01
6.024632711870347990e-01
6.027656897951405579e-01
6.031203591116149898e-01
6.035062427275521557e-01
6.039003249993077915e-01
6.042794837693272747e-01
6.046222866404584728e-01
6.049101928862379296e-01
6.051281428206971569e-01
6.052648813012311280e-01
6.053132806257528475e-01
6.052705463916261408e-01
6.051379111860106796e-01
6.049196345420193577e-01
6.046217375763054402e-01
6.042511831077936879e-01
6.038157131763288721e-01
6.033238199439192595e-01
6.027841675606564475e-01
6.022043452514509454e-01
6.015896737663897209e-01
6.009430807146576292e-01
6.002662049202427408e-01
5.995607117016494847e-01
5.988287107176943902e-01
5.980721360416272336e-01
5.972918895823786656e-01
5.964877645696995412e-01
5.956595410988114736e-01
5.948086366983913464e-01
5.939392000091396895e-01
5.930579975628207379e-01
5.921733500025372354e-01
5.912938708158232970e-01
5.904275216158125783e-01
5.895809383518046953e-01
5.887586879800166262e-01
5.879623699305314144e-01
5.871900658025321906e-01
5.864368058022164654e-01
5.856960878332366782e-01
5.849617225542886878e-01
5.842291531791130588e-01
5.834959395221703815e-01
5.827617310857631239e-01
5.820281999866898648e-01
5.812990772795822991e-01
5.805800658111810453e-01
5.798782622800917608e-01
5.792009553209036543e-01
5.785542340402878292e-01
5.779421870936933825e-01
5.773670825694336983e-01
5.768301495060046413e-01
5.763322161291064560e-01
5.758737960339559425e-01
5.754548366870966269e-01
5.750745549389255640e-01
5.747314955811544390e-01
5.744237315148819079e-01
5.741491198853099220e-01
5.739054373862346736e-01
5.736901963385234726e-01
5.735002333455929691e-01
5.733313788190523841e-01
5.731783441530300394e-01
5.730347598543157339e-01
5.728933755148950535e-01
5.727465903890887056e-01
5.725874209402044279e-01
5.724107141319152436e-01
5.722141677399184001e-01
5.719987363338581154e-01
5.717682141941275997e-01
5.715281539337322414e-01
5.712847048517766257e-01
5.710439981880317539e-01
5.708121409120614498e-01
5.705952342945845857e-01
5.703988362657925748e-01
5.702269517280889044e-01
5.700812203178120541e-01
5.699608194745400258e-01
5.698629531867018816e-01
5.697834790167608521e-01
5.697174784214775745e-01
5.696599680891061279e-01
5.696070821806888951e-01
5.695576409730749301e-01
5.695143032271228201e-01
5.694833920886401835e-01
5.694732466753940070e-01
5.694917734479469917e-01
5.695440994142013658e-01
5.696308361148412214e-01
5.697468054469194687e-01
5.698797810311522216e-01
5.700091716443533851e-01
5.701052109486084429e-01
5.701294997816526156e-01
5.700374373250911564e-01
5.697824811326086536e-01
5.693217852583083438e-01
5.686227753750179303e-01
5.676705004854234460e-01
5.664758004011916093e-01
5.650840295583019479e-01
5.635833278537618618e-01
5.621108393575862117e-01
5.608553267009634968e-01
5.600551688630517333e-01
5.599911392564864698e-01
5.609731031850933025e-01
5.633192232069952343e-01
5.673265687128918877e-01
5.732336582067032449e-01
5.811776510565134224e-01
5.911507810416445352e-01
6.029619527852514427e-01
6.162103582278160019e-01
6.302787851068543112e-01
6.443549211468420079e-01
6.574879539025757502e-01
6.686815763247593303e-01
6.770103923319370498e-01
6.817299675618877508e-01
6.823460384860440264e-01
6.786252752110000230e-01
6.705578009023369646e-01
6.582985733996467026e-01
6.421118594870680596e-01
6.223300198403645123e-01
5.993271241213524725e-01
5.735034170612527404e-01
5.452761682239943841e-01
5.150734139477015638e-01
4.833282014593404674e-01
4.504716640256848925e-01
4.169241315570015316e-01
3.830853309413838059e-01
3.493268523496822486e-01
3.159903717392517630e-01
2.833925509220998618e-01
2.518335156413953890e-01
2.216030812021743679e-01
1.929793431715222662e-01
1.662179305121792017e-01
1.415352456178264329e-01
1.190921189922043988e-01
9.898330461052878837e-02
8.123459396154181222e-02
6.580661834114437392e-02
5.260434789680706880e-02
4.149243358391535574e-02
3.231653039723436649e-02
2.492910713041490700e-02
1.921657954230598930e-02
1.512426806597744200e-02
1.267642908272248459e-02
1.198938871562266195e-02
1.327599113545069320e-02
1.683949090043385111e-02
2.305549923437499871e-02
3.234201235346056968e-02
4.511964610750868188e-02
6.176629783649117966e-02
8.257157622301136701e-02
1.076960108354970691e-01
1.371389735475037064e-01
1.707183841404934510e-01
2.080647079302526126e-01
2.486308308184865257e-01
2.917175731200449262e-01
3.365121139222145286e-01
3.821344445434028958e-01
4.276860787193588753e-01
4.722959661348045679e-01
5.151605334400308767e-01
5.555767512097673499e-01
5.929679643444676351e-01
6.269023469321988173e-01
6.571041742533818564e-01
6.834582101190247450e-01
7.060066148307586609e-01
7.249368248095766631e-01
7.405594938056778709e-01
7.532777986590428743e-01
7.635516986649779625e-01
7.718619166950084765e-01
7.786780870945242405e-01
7.844338469978180406e-01
7.895095853131064434e-01
7.942222423487281802e-01
7.988211703495851079e-01
8.034891873238492188e-01
8.083481530058589382e-01
8.134681457298171825e-01
8.188785585382707399e-01
8.245789733690249701e-01
8.305482617176462856e-01
8.367517578450260896e-01
8.431473409419238951e-01
8.496909103206891078e-01
8.563407272438257056e-01
8.630597757038920292e-01
8.698159875852466971e-01
8.765811727778982654e-01
8.833298250895371684e-01
8.900383732004706339e-01
8.966846295415800139e-01
9.032468608776886843e-01
9.097021930030715353e-01
9.160246983748094873e-01
9.221838862708899853e-01
9.281440336024511240e-01
9.338642289702578925e-01
9.392986910409888424e-01
9.443969884369254331e-01
9.491042127936317740e-01
9.533617205085240798e-01
9.571090011439233880e-01
9.602862619964596114e-01
9.628365488072192502e-01
9.647066635081877894e-01
9.658472352824651885e-01
9.662129117757554120e-01
9.657633097252755761e-01
9.644644448991941399e-01
9.622897534152137222e-01
9.592202389034218957e-01
9.552442822529796373e-01
9.503580128042337094e-01
9.445664840378573679e-01
9.378850583738960189e-01
9.303402204539898968e-01
9.219695439153507976e-01
9.128211582621890141e-01
9.029532114532323739e-01
8.924334112291589793e-01
8.813381926270451583e-01
8.697509813735633255e-01
8.577595977602716637e-01
8.454536105774830279e-01
8.329225989938615626e-01
8.202555167176233120e-01
8.075404501481859842e-01
7.948639200880667222e-01
7.823094089650404204e-01
7.699555161779807477e-01
7.578746087839236534e-01
7.461324407657714541e-01
7.347882137524452961e-01
7.238941666087193028e-01
7.134944181248743522e-01
7.036236545159555433e-01
6.943065166018589363e-01
6.855580351621948232e-01
6.773847344032470907e-01
6.697857338451798093e-01
6.627535044631105432e-01
6.562745531640665764e-01
6.503305852316236813e-01
6.449002352637720481e-01
6.399607712676467219e-01
6.354891012235448500e-01
6.314619434531154596e-01
6.278555461868486898e-01
6.246455287601047068e-01
6.218072093048006010e-01
6.193162525638222782e-01
6.171490156760741641e-01
6.152821029646180495e-01
6.136913773232002267e-01
6.123512740372312191e-01
6.112349950731550408e-01
6.103153270842096578e-01
6.095653939068752525e-01
6.089590085436518141e-01
6.084709022230894160e-01
6.080773371868906096e-01
6.077573276102072874e-01
6.074941432373357486e-01
6.072763543205741410e-01
6.070978537793658703e-01
6.069570385993832140e-01
6.068558958802752201e-01
6.067994824001077259e-01
6.067955284215407197e-01
6.068535536583674617e-01
6.069833014156620354e-01
6.071929361360794974e-01
6.074877120818340526e-01
6.078695212678859594e-01
6.083370797631402205e-01
6.088860386150360959e-01
6.095084482364123701e-01
6.101917170788768718e-01
6.109178698249855266e-01
6.116638383993333594e-01
6.124027919581327417e-01
6.131058668135989098e-01
6.137435746179142892e-01
6.142866435574665385e-01
6.147066953459026095e-01
6.149772233081460815e-01
6.150746284380157469e-01
6.149785479475058381e-01
6.146712038906698705e-01
6.141365966600673687e-01
6.133608166628474745e-01
6.123338507298197175e-01
6.110519476935691863e-01
6.095192813582896996e-01
6.077483844134889956e-01
6.057597592967927103e-01
6.035814811678088532e-01
6.012491594805779993e-01
5.988057256038088472e-01
5.963001853218905524e-01
5.937851237798319470e-01
5.913136698438936634e-01
5.889368948775755008e-01
5.867020125479927017e-01
5.846509043073631062e-01
5.828182312875898052e-01
5.812288322147380892e-01
5.798949005431071058e-01
5.788141323295845631e-01
5.779699303232648244e-01
5.773336845917813598e-01
5.768681968276536676e-01
5.765313743843054617e-01
5.762799660489907883e-01
5.760733945251068633e-01
5.758773275438202610e-01
5.756661185383795676e-01
5.754234117769725376e-01
5.751409941731207009e-01
5.748167093422933416e-01
5.744524519320675093e-01
5.740528823029675820e-01
5.736247919438983711e-01
5.731764839207569295e-01
5.727166127422562703e-01
5.722526849990909881e-01
5.717900725079034796e-01
5.713321061426990255e-01
5.708809141359807438e-01
5.704381977086205868e-01
5.700055116284707957e-01
5.695842800563553077e-01
5.691759861931784403e-01
5.687826133397009265e-01
5.684069843352363982e-01
5.680526027002175127e-01
5.677229996625741126e-01
5.674211232480141920e-01
5.671494269865917648e-01
5.669107127175549987e-01
5.667088823303945144e-01
5.665485271930901234e-01
5.664331740392836156e-01
5.663631993332636227e-01
5.663347077230351800e-01
5.663398431011468226e-01
5.663679878365583953e-01
5.664070309215927246e-01
5.664443599832433840e-01
5.664678391624400344e-01
5.664672595143762646e-01
5.664363335275648392e-01
5.663744939171044823e-01
5.662874358450677992e-01
5.661860285616013844e-01
5.660842943060400145e-01
5.659975728828541275e-01
5.659414075310134074e-01
5.659307468167646960e-01
5.659786446193328935e-01
5.660940701111960571e-01
5.662794114300397919e-01
5.665288977407996196e-01
5.668286570752940623e-01
5.671579507793202968e-01
5.674905136890622259e-01
5.677952601292657331e-01
5.680364689057939565e-01
5.681743590291812307e-01
5.681670933124256528e-01
5.679745664592323884e-01
5.675635580535425273e-01
5.669137713856962080e-01
5.660247678608145705e-01
5.649238385170651799e-01
5.636740574391185810e-01
5.623809134158233025e-01
5.611957431899567972e-01
5.603146700519765488e-01
5.599725406210158685e-01
5.604319227768539413e-01
5.619670354319281635e-01
5.648418468686648986e-01
5.692816824759650007e-01
5.754391457993757175e-01
5.833573503473041821e-01
5.929352419930185025e-01
6.039005457191397586e-01
6.157960148930337052e-01
6.279849552752168051e-01
6.396821340143294954e-01
6.500140532623064349e-01
6.581051383990648151e-01
6.631736328348216691e-01
6.646106091066876775e-01
6.620191027432769104e-01
6.552093322066121495e-01
6.441658939498273728e-01
6.290088338110877419e-01
6.099627980925454995e-01
5.873375313817825738e-01
5.615162881536972517e-01
5.329470735884642707e-01
5.021328346241196172e-01
4.696185359747890309e-01
4.359743298683215751e-01
4.017749015886569741e-01
3.675762700736517341e-01
3.338929950076517383e-01
3.011798361901820154e-01
2.698210251102111656e-01
2.401274467322885298e-01
2.123390482375840382e-01
1.866286939035785575e-01
1.631050146270581758e-01
1.418145305121228383e-01
1.227454184428293238e-01
1.058350620268221354e-01
9.098126815178064764e-02
7.805493195465418310e-02
6.691198593018343743e-02
5.740451190971918027e-02
4.939251660948862366e-02
4.275711647616642352e-02
3.741376941798552069e-02
3.332322102276247255e-02
3.049867854127419342e-02
2.900903637616070174e-02
2.897853961716706506e-02
3.058308034884132942e-02
3.404294220448311759e-02
3.961165195111432391e-02
4.756096904929790758e-02
5.816302991359245667e-02
7.167149483859674985e-02
8.830315430029739288e-02
1.082200797011396709e-01
1.315116025099766217e-01
1.581761654667556694e-01
1.881048411553535860e-01
2.210697992895251374e-01
2.567212781393561349e-01
2.945953161462862568e-01
3.341320551877868250e-01
3.747021056616051671e-01
4.156375132234192971e-01
4.562642680130575834e-01
4.959339555547457867e-01
5.340524415554024351e-01
5.701037748089563539e-01
6.036681922496245356e-01
6.344341122840344571e-01
6.622048251271350772e-01
6.869005828118317503e-01
7.085558480951807958e-01
7.273105919272977449e-01
7.433949607296681528e-01
7.571083214607106093e-01
7.687952380731437607e-01
7.788211547702001969e-01
7.875497696554971672e-01
7.953234066100751676e-01
8.024475552746679341e-01
8.091806642326635490e-01
8.157297230439535252e-01
8.222510927977284556e-01
8.288549554441100309e-01
8.356114143911121950e-01
8.425568439947137556e-01
8.496999946772114676e-01
8.570280168957906675e-01
8.645125516730820525e-01
8.721153912611250281e-01
8.797928034659483476e-01
8.874981773471291024e-01
8.951836761861908798e-01
9.028019419526056577e-01
9.103082094235412924e-01
9.176622125122144702e-01
9.248289710683719189e-01
9.317780927883105857e-01
9.384820449885600269e-01
9.449142786278490469e-01
9.510478264122679271e-01
9.568544075184273190e-01
9.623037396515670139e-01
9.673628416673154540e-01
9.719954201877665234e-01
9.761616413983331686e-01
9.798183637319513029e-01
9.829194878916904798e-01
9.854161063880655380e-01
9.872567021017832900e-01
9.883882233746383861e-01
9.887588070266462026e-01
9.883220144920805694e-01
9.870413172829941573e-01
9.848931885889105065e-01
9.818679045734324262e-01
9.779684844750951012e-01
9.732090445065380013e-01
9.676135774048182370e-01
9.612152092033454664e-01
9.540552661497720965e-01
9.461816028795733136e-01
9.376464501291608133e-01
9.285046454243115477e-01
9.188127491794504387e-01
9.086286684445381567e-01
8.980110701147085983e-01
8.870183807320211056e-01
8.757079430979797241e-01
8.641360610279140708e-01
8.523589557949542428e-01
8.404338510524389516e-01
8.284193385941591714e-01
8.163748124093586078e-01
8.043594659065116392e-01
7.924315427355652641e-01
7.806481159725666696e-01
7.690650857646150751e-01
7.577368448477741492e-01
7.467153918725246697e-01
7.360492589286797838e-01
7.257827468201347720e-01
7.159554557469309799e-01
7.066015988064544562e-01
6.977486434363515677e-01
6.894153653457735231e-01
6.816100437989585092e-01
6.743298696812805026e-01
6.675621991366202934e-01
6.612871272876676976e-01
6.554800529877991000e-01
6.501132751648113217e-01
6.451567259836636925e-01
6.405787017350121904e-01
6.363472961465164168e-01
6.324323985814244153e-01
6.288074746746552535e-01
6.254504559168170275e-01
6.223437009120338370e-01
6.194735440371819113e-01
6.168298359402382136e-01
6.144052372857127242e-01
6.121938407718892083e-01
6.101893695443958432e-01
6.083838362819546930e-01
6.067673343988824186e-01
6.053288420238904788e-01
6.040573486683593618e-01
6.029426477479067348e-01
6.019755176672931807e-01
6.011474402210772450e-01
6.004502782773961655e-01
5.998761561664933684e-01
5.994172849477983345e-01
5.990653360910009884e-01
5.988105194395556552e-01
5.986411509521125662e-01
5.985443601717952422e-01
5.985077283280191285e-01
5.985208632305685228e-01
5.985758908965943537e-01
5.986666764380972339e-01
5.987875946469118915e-01
5.989329140251913319e-01
5.990971526988166929e-01
5.992758392372392606e-01
5.994658509606911601e-01
5.996650214987699901e-01
5.998713383724707526e-01
6.000822489458867981e-01
6.002943028546663395e-01
6.005029235824204115e-01
6.007020487693144339e-01
6.008837358160061815e-01
6.010381529108130838e-01
6.011543646626755777e-01
6.012218745808468601e-01
6.012322734065664864e-01
6.011801613739140571e-01
6.010629640991005385e-01
6.008800051798708353e-01
6.006316653493566360e-01
6.003191797047229272e-01
5.999448598762235907e-01
5.995121059720809331e-01
5.990248800723501077e-01
5.984869646989450231e-01
5.979016420066602944e-01
5.972720319152236002e-01
5.966016481396587690e-01
5.958945974892122521e-01
5.951553454781894903e-01
5.943884298473407490e-01
5.935985238831598121e-01
5.927908908437196089e-01
5.919718007167158458e-01
5.911483578709779696e-01
5.903275989462102302e-01
5.895153227717369049e-01
5.887153949668717523e-01
5.879299293052286934e-01
5.871600417928815041e-01
5.864064994290627553e-01
5.856699133513283417e-01
5.849507549827850372e-01
5.842496899144125067e-01
5.835683132988227495e-01
5.829098461756738736e-01
5.822792712494941902e-01
5.816827928964294347e-01
5.811271012525531798e-01
5.806191918625709381e-01
5.801669851027413394e-01
5.797800609532646199e-01
5.794694884555737779e-01
5.792463858132319565e-01
5.791198556330288127e-01
5.790953878319438086e-01
5.791742818745837518e-01
5.793536078527652400e-01
5.796258123112076888e-01
5.799777466036430962e-01
5.803898637727256116e-01
5.808364623811828054e-01
5.812870327358776734e-01
5.817080040156035192e-01
5.820642363515506901e-01
5.823201314732215916e-01
5.824407037494090389e-01
5.823931017127048637e-01
5.821487553109827573e-01
5.816857040299714399e-01
5.809903089134602627e-01
5.800578712740434018e-01
5.788923934475680433e-01
5.775061736809627977e-01
5.759197371186521863e-01
5.741619477134725091e-01
5.722696723092179916e-01
5.702866144018463590e-01
5.682616239556257387e-01
5.662470583630918597e-01
5.642973108570124019e-01
5.624670550874970587e-01
5.608087523307057065e-01
5.593695470067254760e-01
5.581882659642320998e-01
5.572931926879534092e-01
5.567006039001658468e-01
5.564135240261658399e-01
5.564203760279460287e-01
5.566939164313366994e-01
5.571914396550603499e-01
5.578571511166461327e-01
5.586265540638140070e-01
5.594314422269464071e-01
5.602039256682946888e-01
5.608789892012351341e-01
5.613963456211281677e-01
5.617028289455647805e-01
5.617560928825882094e-01
5.615295126490993383e-01
5.610176412035021709e-01
5.602415982337329847e-01
5.592542169462815238e-01
5.581450334683084602e-01
5.570446754147218016e-01
5.561272926768758840e-01
5.556092387616180517e-01
5.557424947518418978e-01
5.568021287994904256e-01
5.590678415471752594e-01
5.627997372930058084e-01
5.682084003087226609e-01
5.754203443059406897e-01
5.844419880329490002e-01
5.951274680032738740e-01
6.071570313563317001e-01
6.200331827247886896e-01
6.331010857807657377e-01
6.455974951325798017e-01
6.567272431612665162e-01
6.657563499273531082e-01
6.720984832135217246e-01
6.753663219856707034e-01
6.753708285183572801e-01
6.720750140305673526e-01
6.655270634333732005e-01
6.557992788695556907e-01
6.429490558735315719e-01
6.270067527067277879e-01
6.079877998589668930e-01
5.859221560215155389e-01
5.608920122254643648e-01
5.330681895830600148e-01
5.027368605986157757e-01
4.703105591488744852e-01
4.363203848301287491e-01
4.013896019235153045e-01
3.661921534707614501e-01
3.314023497972458654e-01
2.976436454811082766e-01
2.654446773723312947e-01
2.352093559862335481e-01
2.072048371678213985e-01
1.815672923092273572e-01
1.583217430592079866e-01
1.374098892699540664e-01
1.187191713382504399e-01
1.021073777655222004e-01
8.741992398064452052e-02
7.450056122566001138e-02
6.319884919223078823e-02
5.337769943983516896e-02
4.492213513334802899e-02
3.774834764073564664e-02
3.181168846779341974e-02
2.711303885109400680e-02
2.370379579103959466e-02
2.168957064081361574e-02
2.123170230284765481e-02
2.254484745704860016e-02
2.588914836652106422e-02
3.155680524816373289e-02
3.985436047068119381e-02
5.108253650068556029e-02
6.551493085073395450e-02
8.337617071497249732e-02
1.048200453740646410e-01
1.299086522488602791e-01
1.585942637807777333e-01
1.907060340080368177e-01
2.259437395597003184e-01
2.638805109391610393e-01
3.039756232892866783e-01
3.455968143261042846e-01
3.880500019785442789e-01
4.306133478404847170e-01
4.725724675301518629e-01
5.132539950512222671e-01
5.520551815842020815e-01
5.884676277665303878e-01
6.220941218083868574e-01
6.526588794645193925e-01
6.800122191127975224e-01
7.041301644409154736e-01
7.251083233311481635e-01
7.431489805906246193e-01
7.585414288532619231e-01
7.716374488815469501e-01
7.828248856602753047e-01
7.925018781954096259e-01
8.010535063876795814e-01
8.088322535363474675e-01
8.161435460852506374e-01
8.232372134394014829e-01
8.303048096738110395e-01
8.374816692012077013e-01
8.448520057020039165e-01
8.524556947620591796e-01
8.602961803099593574e-01
8.683492925214606473e-01
8.765722883200586235e-01
8.849118734861780577e-01
8.933102230155329782e-01
9.017088930348535758e-01
9.100512165352141469e-01
9.182839051386455509e-01
9.263581668592191232e-01
9.342300531728116031e-01
9.418596126676375135e-01
9.492089710646267608e-01
9.562401403777431863e-01
9.629134876477387639e-01
9.691871824610784891e-01
9.750171918873491439e-01
9.803572994833287257e-01
9.851592040653673887e-01
9.893732314701835229e-01
9.929499386569526909e-01
9.958421451181458384e-01
9.980065040914829488e-01
9.994040540202624445e-01
1.000000000000000000e+00
9.997636124980611161e-01
9.986690011482088902e-01
9.966967290543391478e-01
9.938355100794658004e-01
9.900830685510997320e-01
9.854456727707474606e-01
9.799366743342541319e-01
9.735749892777780801e-01
9.663842389271388722e-01
9.583925204787939744e-01
9.496323618436361969e-01
9.401405798498851940e-01
9.299580964471299005e-01
9.191299931853185168e-01
9.077061186957886552e-01
8.957422402939692052e-01
8.833011821281431253e-01
8.704532657038850374e-01
8.572759126224860360e-01
8.438528200882340347e-01
8.302729993402879760e-01
8.166293536939266406e-01
8.030162142701586792e-01
7.895258378378406938e-01
7.762447207508198499e-01
7.632508119303280658e-01
7.506121998834864861e-01
7.383870552060221026e-01
7.266240368729159904e-01
7.153624796018454024e-01
7.046324039603784062e-01
6.944549077598876075e-01
6.848432407250109044e-01
6.758042675876472227e-01
6.673397353503967011e-01
6.594469134871732141e-01
6.521186648515668871e-01
6.453434963274842229e-01
6.391060561963632924e-01
6.333879281320999866e-01
6.281682145017848384e-01
6.234237000123683536e-01
6.191289522628531383e-01
6.152569321933907265e-01
6.117801814482286549e-01
6.086718799179111627e-01
6.059059655580165682e-01
6.034562078686140918e-01
6.012949698955980526e-01
5.993927393513769353e-01
5.977189861372591562e-01
5.962438812160248958e-01
5.949398738448359314e-01
5.937824839325269721e-01
5.927504392859026527e-01
5.918258192787781979e-01
5.909947316794641470e-01
5.902482654956260344e-01
5.895827753217879330e-01
5.889988077698045110e-01
5.884989972158150007e-01
5.880859849542530160e-01
5.877611716345765291e-01
5.875242563523095374e-01
5.873729891421501925e-01
5.873028512348470453e-01
5.873069784055970910e-01
5.873767989415361601e-01
5.875034386983419843e-01
5.876793347316351390e-01
5.878991656647596376e-01
5.881595220500535071e-01
5.884576615583696491e-01
5.887904528995748787e-01
5.891543399642218404e-01
5.895460971063033462e-01
5.899633823121883669e-01
5.904042407744458654e-01
5.908656246388110933e-01
5.913419480164450182e-01
5.918246765445198676e-01
5.923028854142859956e-01
5.927639195483023205e-01
5.931936795259631356e-01
5.935769212609613987e-01
5.938981815477604176e-01
5.941433527931070380e-01
5.943012411433568065e-01
5.943644376932399886e-01
5.943293997282106389e-01
5.941960814055926576e-01
5.939675031350837298e-01
5.936493668233047138e-01
5.932494132861663161e-01
5.927761666764257420e-01
5.922372209790980335e-01
5.916378120718042144e-01
5.909805010953141924e-01
5.902662275428847138e-01
5.894961428777136803e-01
5.886732192048937939e-01
5.878030124018922553e-01
5.868937172240606959e-01
5.859560711873470495e-01
5.850033756725538936e-01
5.840511802846164446e-01
5.831158786421788420e-01
5.822121349330515727e-01
5.813500745281090509e-01
5.805334730208302485e-01
5.797595646297997174e-01
5.790201725491799234e-01
5.783033628672127335e-01
5.775950625589416632e-01
5.768806705334559304e-01
5.761469401986323291e-01
5.753840635528908454e-01
5.745873110002295281e-01
5.737574499235584824e-01
5.728997670163402667e-01
5.720223879366319597e-01
5.711349286586178131e-01
5.702479305465417703e-01
5.693725565927763022e-01
5.685197742708161250e-01
5.676990645742119312e-01
5.669175644035360229e-01
5.661803714909985352e-01
5.654916875261308817e-01
5.648556858253985791e-01
5.642762764796116493e-01
5.637559894581101183e-01
5.632949338762800462e-01
5.628905909529420271e-01
5.625384714962078370e-01
5.622331132445834712e-01
5.619687637747059483e-01
5.617393892103210717e-01
5.615382665868062784e-01
5.613578869080606548e-01
5.611906026395558911e-01
5.610295683133459388e-01
5.608690729819247878e-01
5.607039334361165750e-01
5.605285800597521462e-01
5.603368105140222877e-01
5.601226679350652660e-01
5.598821192663352431e-01
5.596147935929487449e-01
5.593251333548925341e-01
5.590228009518005692e-01
5.587227732321411455e-01
5.584455662268787979e-01
5.582172389919366484e-01
5.580682469164632842e-01
5.580307412753067187e-01
5.581349059188684958e-01
5.584052600760265328e-01
5.588574109312394178e-01
5.594951794272051693e-01
5.603079271423978547e-01
5.612683294313778326e-01
5.623313163079557420e-01
5.634349527701780769e-01
5.645035813751793086e-01
5.654529420291893871e-01
5.661966725698872605e-01
5.666537661130575110e-01
5.667569956794089592e-01
5.664624983430917027e-01
5.657602039184286280e-01
5.646838828238838204e-01
5.633191543899249698e-01
5.618082309832490573e-01
5.603509042065011325e-01
5.592014154562905404e-01
5.586601490089819766e-01
5.590582813431250742e-01
5.607335939611022280e-01
5.639970065385984110e-01
5.690916379726100871e-01
5.761483703874059614e-01
5.851431297220284211e-01
5.958616063399082563e-01
6.078778640103068565e-01
6.205545314097218323e-01
6.330728710413191518e-01
6.444985530073112923e-01
6.538807084963782490e-01
6.603675282738137309e-01
6.633078880679750267e-01
6.623078459993010370e-01
6.572293634564603249e-01
6.481443370924011571e-01
6.352706695560368377e-01
6.189129419389876041e-01
5.994184242569013943e-01
5.771501219151167206e-01
5.524741299501314540e-01
5.257564253224316086e-01
4.973634981075783501e-01
4.676621577833859900e-01
4.370158261128492261e-01
4.057768160941282454e-01
3.742765094333662668e-01
3.428175489438869961e-01
3.116723612780876729e-01
2.810893869629623176e-01
2.513039206021833727e-01
2.225476248412582847e-01
1.950514536436885327e-01
1.690400904234967694e-01
1.447196980966248825e-01
1.222630011943301453e-01
1.017960215333257312e-01
8.338959019419256435e-02
6.705713987393252529e-02
5.275922647974073953e-02
4.041461457709200067e-02
2.991699280060095001e-02
2.115545679036801019e-02
1.403625561162658020e-02
8.503334124166261887e-03
4.555714960988110906e-03
2.259981423627599462e-03
1.755911219137817891e-03
3.253507189483695328e-03
7.020751897986121648e-03
1.336294639280494190e-02
2.259585900832028482e-02
3.501563223283515880e-02
5.086833639857829548e-02
7.032171145983218130e-02
9.344152444220465981e-02
1.201748558328005756e-01
1.503419952634253987e-01
1.836375914426431888e-01
2.196407062879183747e-01
2.578325185368182670e-01
2.976197585071759799e-01
3.383619214031991507e-01
3.794004646361019417e-01
4.200877593158265921e-01
4.598130332598542869e-01
4.980231639037617231e-01
5.342380203227894420e-01
5.680616925236916526e-01
5.991910964671458562e-01
6.274223182712550528e-01
6.526538993296842062e-01
6.748859137132909858e-01
6.942141196089219868e-01
7.108192216347357650e-01
7.249518889263961707e-01
7.369144854381262100e-01
7.470407235624434428e-01
7.556748465990803520e-01
7.631523735780625373e-01
7.697845190860901354e-01
7.758476292469020930e-01
7.815774608340340102e-01
7.871669655171980029e-01
7.927662354987594640e-01
7.984839681565232272e-01
8.043904466247320251e-01
8.105222545891146435e-01
8.168885493634698847e-01
8.234779410765862284e-01
8.302646620641880304e-01
8.372132456626917296e-01
8.442819325696855337e-01
8.514255286104579490e-01
8.585979971525712351e-01
8.657543748205132061e-01
8.728515742020714896e-01
8.798482520023933606e-01
8.867045624207867682e-01
8.933826997165459360e-01
8.998483059825943542e-01
9.060716812729765479e-01
9.120275985965045074e-01
9.176936274916320802e-01
9.230479552033756807e-01
9.280677544528443956e-01
9.327284264370869771e-01
9.370033326676892038e-01
9.408633899002609713e-01
9.442762085992415511e-01
9.472051337999403131e-01
9.496090387298921076e-01
9.514433807496156525e-01
9.526620948224244767e-01
9.532194381915313208e-01
9.530714362453303057e-01
9.521773988109598630e-01
9.505020512089099594e-01
9.480181001092491400e-01
9.447083902847233094e-01
9.405668667643307668e-01
9.355982027370168819e-01
9.298165970394862700e-01
9.232444113958435672e-01
9.159109741968354257e-01
9.078514762608673738e-01
8.991058753155440897e-01
8.897180171073255650e-01
8.797353785664983050e-01
8.692097047854157044e-01
8.581983368159502579e-01
8.467654725388229497e-01
8.349824579482185705e-01
8.229267192628204608e-01
8.106797383710633298e-01
7.983249095225408709e-01
7.859458569557531415e-01
7.736250450165409465e-01
7.614420468875486847e-01
7.494712834782415456e-01
7.377799709287795604e-01
7.264273503065814541e-01
7.154655263230438322e-01
7.049410346160565055e-01
6.948957665153963070e-01
6.853665560603616758e-01
6.763837713743034996e-01
6.679697183843698038e-01
6.601374536545898675e-01
6.528901646399942749e-01
6.462210300926964912e-01
6.401134973047735155e-01
6.345421111462639097e-01
6.294741644016943471e-01
6.248721293668888510e-01
6.206962826298887403e-01
6.169068549908307553e-01
6.134655359811813646e-01
6.103366927518185658e-01
6.074886835902393312e-01
6.048950583843080153e-01
6.025349152388059792e-01
6.003920412997032496e-01
5.984533831575107321e-01
5.967077599330847804e-01
5.951453263067050248e-01
5.937577586967983656e-01
5.925387204446275202e-01
5.914838630338896674e-01
5.905898412679311260e-01
5.898526767845624352e-01
5.892664844524528878e-01
5.888232103596815481e-01
5.885129888102624829e-01
5.883243060263876334e-01
5.882438006215648940e-01
5.882563060823353673e-01
5.883457620594172433e-01
5.884969160798525500e-01
5.886969603827090225e-01
5.889361557089725085e-01
5.892071999356118805e-01
5.895039499387777493e-01
5.898204031760723165e-01
5.901503792002702475e-01
5.904876255870876722e-01
5.908258785907094524e-01
5.911587648740044276e-01
5.914797804010301085e-01
5.917825835280170477e-01
5.920615485057687533e-01
5.923122426919447125e-01
5.925314443630713690e-01
5.927165943785155378e-01
5.928651607236532506e-01
5.929747488654377729e-01
5.930442001570173094e-01
5.930748137519576968e-01
5.930704894381142456e-01
5.930363917245302652e-01
5.929768394128049902e-01
5.928936611204724816e-01
5.927858698885146715e-01
5.926504410808111079e-01
5.924832100487535946e-01
5.922792220796855300e-01
5.920327799504980781e-01
5.917379010039054421e-01
5.913895156094262084e-01
5.909849254263952467e-01
5.905246064522118310e-01
5.900118745674429732e-01
5.894518326553805920e-01
5.888504777360239473e-01
5.882143812103828306e-01
5.875504807498941329e-01
5.868652670612846123e-01
5.861633700279615944e-01
5.854464618787322827e-01
5.847134434917442558e-01
5.839619479307511796e-01
5.831902223328866430e-01
5.823983322249757233e-01
5.815883274183406559e-01
5.807637883867367012e-01
5.799294241390284821e-01
5.790910187640820883e-01
5.782554250709490695e-01
5.774301091592732860e-01
5.766222029752763323e-01
5.758376386483341491e-01
5.750809913535979145e-01
5.743559893928833482e-01
5.736659594631430270e-01
5.730135454374198911e-01
5.723997553811885908e-01
5.718230254748510877e-01
5.712790548173514171e-01
5.707616315827259701e-01
5.702639788860042191e-01
5.697799093693749484e-01
5.693044320425264537e-01
5.688339746115116391e-01
5.683665275003553230e-01
5.679017401491293082e-01
5.674407638617013916e-01
5.669856682630398659e-01
5.665385189958556111e-01
5.661006225427809291e-01
5.656725213707383126e-01
5.652546595896943415e-01
5.648479348104782360e-01
5.644535043674827612e-01
5.640720664362866010e-01
5.637035185253067571e-01
5.633476226038669488e-01
5.630052201976218917e-01
5.626788832071467628e-01
5.623723705459140465e-01
5.620892028368609239e-01
5.618313121659659348e-01
5.615987580220302977e-01
5.613906527833172344e-01
5.612062659412675458e-01
5.610450871446910348e-01
5.609056943408290419e-01
5.607844671760149335e-01
5.606753797631685021e-01
5.605711857798043596e-01
5.604652270123284818e-01
5.603528368273207327e-01
5.602318432823125693e-01
5.601024180842426592e-01
5.599669409147458587e-01
5.598302420983569672e-01
5.596998236075176880e-01
5.595853402389225906e-01
5.594971370966124180e-01
5.594444891316248114e-01
5.594344904159129772e-01
5.594718532880771367e-01
5.595589131850395859e-01
5.596949480084327799e-01
5.598746088577915003e-01
5.600861913086383481e-01
5.603109218643267386e-01
5.605239029403077389e-01
5.606963311104935510e-01
5.607982127237416403e-01
5.608012999131308796e-01
5.606825845205194447e-01
5.604288030973805235e-01
5.600419965923923993e-01
5.595455962810951256e-01
5.589902543158886683e-01
5.584588186655370379e-01
5.580700758499246295e-01
5.579807210755640678e-01
5.583844100953490042e-01
5.595061204423048551e-01
5.615900653872309967e-01
5.648802527839424936e-01
5.695939476269327173e-01
5.758893106220583924e-01
5.838293542366734812e-01
5.933454222540766043e-01
6.042050958875908595e-01
6.159917199139497423e-01
6.281046978111866075e-01
6.397896853743154644e-01
6.502035784561748244e-01
6.585086236264763304e-01
6.639748473418800589e-01
6.660600741730935415e-01
6.644437545916401788e-01
6.590129289606931895e-01
6.498187256411132040e-01
6.370260362459128078e-01
6.208707715095649338e-01
6.016298078173722974e-01
5.796035712544760354e-01
5.551085127690376098e-01
5.284749571292679526e-01
5.000455043925564613e-01
4.701707025036658272e-01
4.392013233809110573e-01
4.074790176728558255e-01
3.753285308394875286e-01
3.430546778934676078e-01
3.109456169057805419e-01
2.792810750266107589e-01
2.483417615559208591e-01
2.184155353797188615e-01
1.897967142970644061e-01
1.627766921688214574e-01
1.376267830537348802e-01
1.145773692981030822e-01
9.379910127977098000e-02
7.539064486416047206e-02
5.937451416370836954e-02
4.570044554934749037e-02
3.425533886460946364e-02
2.487882922406775554e-02
1.738323288401422140e-02
1.157624514504801416e-02
7.284669278006472570e-03
4.377212283845466345e-03
2.783735145763577279e-03
2.508123864001621239e-03
3.633005868809546790e-03
6.316246669411551551e-03
1.078018021087479017e-02
1.729454165750393679e-02
2.615393845707003617e-02
3.765124537819314332e-02
5.204948573328510575e-02
6.955558769945852093e-02
9.029882295080582377e-02
1.143150012299457563e-01
1.415362106571245726e-01
1.717859553907338799e-01
2.047801175605886148e-01
2.401342597117431255e-01
2.773772963150381021e-01
3.159708079739247943e-01
3.553325811553696423e-01
3.948624031466202999e-01
4.339677328976223047e-01
4.720871172909827940e-01
5.087102251002948439e-01
5.433941634563845824e-01
5.757758821891920675e-01
6.055805938013274492e-01
6.326265488088171907e-01
6.568267860984713380e-01
6.781881700781757782e-01
6.968071653121874487e-01
7.128611491861667204e-01
7.265945294158564494e-01
7.383004033786508824e-01
7.482998926846449184e-01
7.569217891010988630e-01
7.644846474788535851e-01
7.712823285897492109e-01
7.775729810996603319e-01
7.835711914154361857e-01
7.894433577825712423e-01
7.953063425345241466e-01
8.012286684604947862e-01
8.072329185487592262e-01
8.132985662125622461e-01
8.193656297767952790e-01
8.253402373275231518e-01
